>compound cyclo(L-Phe-L-Pro)
>formula C14H16N2O2 
>ionization [M+H]+
>parentmass 245.127457
#inchi InChI=1S/C14H16N2O2/c17-13-12-7-4-8-16(12)14(18)11(15-13)9-10-5-2-1-3-6-10/h1-3,5-6,11-12H,4,7-9H2,(H,15,17)/t11-,12-/m0/s1
#inchikey QZBUWPVZSXDWSB
#Ion_Source DI-ESI
#Instrument qTof
#Compound_Source Isolated
#PI Keyzers
#Data_Collector R Keyzers
#Scan -1
#Precursor_MZ 245.128
#ExactMass 244.121
#Charge 1
#CAS_Number 3705-26-8
#Pubmed_ID N/A
#Smiles N/A
#INCHI_AUX N/A
#Library_Class 3
#SpectrumID CCMSLIB00000007045
#IonMode Positive
#UpdateWorkflowName UPDATE-SINGLE-ANNOTATED-BRONZE
#LibraryQualityString Bronze
#TaskID 76b66bf1ccd04cec9993212b36387ea3
##Scan# 5
#SpectrumFile CDB02_15F_pos_MSMS_001_1.mgf
#LibraryName gnps_library.mgf
#MQScore -1
#Organism test_rob_keyzers
#TIC_Query 0
#RT_Query -1
#MZErrorPPM -1
#SharedPeaks 0
#MassDiff 0
#LibMZ -1
#SpecMZ 245.128
#SpecCharge 0
#internalFilename spec-00000.mgf

>collision 10
20.935896 12.5
22.979645 19.471149
23.744192 11.5625
30.904892 13.75
31.134289 46.0
33.634682 24.049999
34.963696 28.14286
36.328411 57.5625
36.360813 11.10227
36.947292 32.605
37.739933 26.0
39.648617 15.0
42.035423 22.16346
43.057835 63.36842
44.143742 52.004028
46.091969 31.285721
47.882393 15.0
50.487247 15.47115
51.193241 32.005951
53.0317 27.10227
54.033264 102.008301
55.056995 49.083328
57.065426 154.406601
57.118599 11.0
57.290695 24.625
58.518761 22.450001
58.641922 35.840912
59.05851 87.321808
60.045525 136.470596
62.059074 470.0401
62.130489 10.10227
62.812443 10.16071
63.868576 20.049999
67.051094 225.016098
67.095627 10.625
67.634148 18.408331
69.068695 78.01786
69.18914 20.200001
69.610138 17.375
70.065094 1783.208984
70.141243 30.55603
70.162788 18.225
70.229515 15.24039
70.659393 24.0
71.086578 198.308807
72.026596 21.0
78.035957 95.375
78.910713 10.01389
79.919388 16.375
80.948883 65.680557
81.068298 195.334595
82.23642 18.57143
82.838997 23.89286
83.081245 51.520828
84.088257 72.333344
85.072495 210.225494
85.213188 11.0
86.075912 80.385643
87.101036 120.041702
87.476334 37.44022
89.087532 10.75
90.975754 71.021217
91.056206 80.210533
92.574104 17.04167
93.041275 30.28125
93.067451 99.951271
95.08181 56.015629
96.041084 93.938828
96.091904 50.671299
97.165993 18.28125
97.81369 23.03125
98.07679 17.049999
99.087639 41.44643
100.023445 21.89286
100.074852 69.25
100.997498 10.8
101.599815 19.0
102.091736 1297.22998
102.18586 22.03409
102.284775 19.111111
102.4076 17.04167
102.473373 11.92045
102.522934 28.10227
102.617264 20.05921
103.054161 81.125
103.099319 180.625
103.192802 14.375
104.096588 72.485291
104.67569 10.01389
105.07415 243.284302
105.419533 16.008329
106.056313 11.875
107.813835 37.53125
107.856796 12.025
107.96524 183.900406
108.027008 10.08333
108.080902 149.009995
108.114792 30.56818
109.098221 73.557693
109.787537 12.01389
110.761185 13.04167
111.28231 14.2
112.002975 22.45455
113.069504 58.603569
114.436897 22.008329
115.521965 11.32143
117.496284 54.39674
118.039604 185.3647
118.065819 110.852303
119.063675 277.556
119.130219 10.025
120.080711 772.31012
120.181168 12.2
120.414124 19.009609
120.737808 42.1875
121.098656 99.077583
122.09684 61.640148
123.055161 75.102272
123.118881 402.22229
123.79808 15.2
124.038284 23.013889
124.127716 76.052643
124.802971 36.05357
125.089867 73.23214
126.537491 31.57143
126.928673 13.0
128.522476 16.674999
128.947845 72.149391
129.102646 46.777779
131.056305 11.28409
132.051117 57.185612
132.111572 52.53125
135.116684 77.148811
135.626266 10.92045
136.102859 23.03125
137.006638 12.55682
138.125778 27.25
140.063034 13.14286
142.171219 52.022732
144.069748 16.799999
147.05217 61.157051
148.085587 46.400002
149.131866 56.240379
153.064224 176.959503
153.28511 28.796049
154.07576 491.256897
154.136703 20.008329
154.435715 37.657612
154.695358 14.04167
155.110077 76.284088
155.448776 34.048908
157.088333 21.471149
157.406281 20.28409
159.001373 10.04167
159.220093 10.10227
160.069138 21.66667
160.110626 576.634216
160.173859 22.008329
160.567123 17.08654
161.08107 27.375
161.117142 180.5
161.45578 14.625
162.105728 86.066673
163.077774 89.138512
163.11142 94.028847
163.588852 44.005001
163.655334 11.03571
166.266479 72.076218
166.91806 54.89352
169.08284 38.0
170.094604 194.9095
171.09407 56.721149
172.106583 313.603302
172.87561 34.26667
173.108932 57.30682
175.092102 14.16071
176.11557 109.315804
177.205002 17.5
178.464523 15.59559
180.168945 54.135872
180.609634 11.0
180.693863 13.0625
181.119843 36.560181
183.11525 38.777779
184.076004 13.33333
184.737228 24.28125
185.104568 265.049988
185.935059 23.125
186.281357 19.009609
186.478668 17.28125
187.122513 552.883484
187.249847 12.04167
188.120361 17.55682
188.35701 14.16071
189.001541 25.57143
190.10556 126.100601
191.131378 46.160709
192.191437 21.32143
193.028366 11.625
193.637985 154.75
195.368195 14.04167
196.412415 14.0
198.053329 10.225
198.110703 44.6875
198.552567 13.375
198.934464 44.083328
200.261078 19.28125
201.102249 59.038792
202.111557 155.762207
202.778198 15.45
202.858536 11.25
203.103485 57.36742
205.099289 11.025
205.394821 18.375
205.861511 21.408331
207.136475 62.416672
208.163177 82.625
209.604843 10.125
211.949326 17.04167
212.109711 48.375
213.105377 32.0
215.114838 153.272705
216.114059 39.480259
217.12999 417.944702
217.502686 34.900002
218.495987 19.08654
223.478058 12.0625
224.541946 16.347219
224.867966 16.20833
224.894501 10.025
225.888657 11.47115
226.103333 34.08654
227.100342 24.125
233.825027 24.20833
239.986725 16.200001
240.756851 40.140629
242.916931 20.408331
243.002426 65.265633
243.143188 105.777802
244.047638 15.04167
244.121231 203.3853
244.199478 58.387821
245.127457 407.612305
245.470947 12.375
245.630859 15.44643
246.134827 33.375
246.872772 13.0
247.007507 25.125
250.101929 30.84091
258.081207 13.68056
260.999176 17.53289
261.202423 34.066181
266.32074 10.01136
274.227722 25.009609
276.196716 32.004631
278.141632 22.32143
279.336517 25.2663
284.179688 52.044998
290.549194 12.45
292.304779 48.605
295.156952 12.8
302.200562 148.571396
303.322266 11.125
304.122681 11.66667
304.767822 29.0
312.204742 20.013889
317.344727 11.01136
319.924377 15.04167
325.427948 44.605
326.566162 37.520828
328.37912 12.2
331.265411 26.045
340.014404 19.035721
348.440918 16.125
354.012817 13.5625
372.983154 13.01786
378.229279 11.0
379.015198 31.066179
389.850739 10.5
392.84201 12.01136
399.602203 22.285721
399.755615 27.225
402.712036 17.10227
406.905792 12.01389
416.855286 10.47115
418.296326 12.44643
419.199707 16.240391
421.880951 40.390629
429.6539 25.33333
440.412445 15.75
441.551666 10.225
445.645355 12.47115
453.046906 11.08333
460.170471 11.05
465.269653 17.0
468.239868 20.16667
470.597626 22.183821
480.443634 25.36364
488.034607 19.200001
489.563232 22.240391
505.428467 11.33333
507.572083 18.0
529.661316 29.05357
534.39209 10.16667
537.352722 12.01389
541.915588 11.05
550.022827 12.92045
558.545654 23.125
570.680786 12.5625
574.632935 12.375
585.94751 21.5
589.539917 14.45
598.725098 11.28409
601.976196 39.003792
603.39679 15.34722
605.868103 15.08333
609.315674 23.0
621.217712 10.01136
626.382996 17.183821
635.063721 25.44022
637.503723 10.125
639.366516 11.10227
647.470947 12.8
651.630737 38.004631
655.931763 12.36029
659.901306 12.225
663.57373 20.25
667.622925 25.027781
680.372253 21.375
692.612305 15.125
697.234558 46.150002
723.083984 31.25
741.270142 19.66667
742.595947 13.04167
748.017883 97.083344
784.504639 10.225
793.481018 24.48214
798.169983 11.44643
807.961792 35.0
821.610779 32.125
846.637817 16.075001
856.175049 38.008339
857.652222 18.29167
866.770691 20.360291
866.83905 11.04167
873.20697 18.08654
874.553528 10.0
878.236389 15.08654
880.098938 19.03125
880.987183 11.16667
896.462036 22.53289
907.220642 20.013889
908.45166 17.008329
912.154846 14.05
928.259583 23.57143
937.160339 11.25
940.872437 16.01136
947.587036 36.11364
959.146973 41.041672
972.14386 32.570648
997.890564 10.625
