>compound Saliniketal B
>formula C22H37NO6 
>ionization [M+H]+
>parentmass 412.2693643560906
#inchi InChI=1S/C22H37NO6/c1-12(7-6-8-16(11-24)21(23)27)18(25)14(3)19(26)15(4)20-13(2)17-9-10-22(5,28-17)29-20/h6-8,12-15,17-20,24-26H,9-11H2,1-5H3,(H2,23,27)/b7-6+,16-8-/t12-,13+,14+,15+,17+,18-,19+,20+,22-/m0/s1
#inchikey QWSYKJZSJYRUSS
#Ion_Source LC-ESI
#Instrument qTof
#Compound_Source Isolated
#PI Fenical-Jensen-Moore
#Data_Collector Max
#Scan -1
#Precursor_MZ 412.272
#ExactMass 411.265
#Charge 1
#CAS_Number N/A
#Pubmed_ID N/A
#Smiles N/A
#INCHI_AUX N/A
#Library_Class 1
#SpectrumID CCMSLIB00000001680
#IonMode Positive
#UpdateWorkflowName UPDATE-SINGLE-ANNOTATED-GOLD
#LibraryQualityString Gold
#TaskID d14a5843653040ba9fa2c4376f2be358
##Scan# 1
#SpectrumFile F1.mgf
#LibraryName gnps_library.mgf
#MQScore -1
#Organism gnps_library
#TIC_Query 0
#RT_Query -1
#MZErrorPPM -1
#SharedPeaks 0
#MassDiff 0
#LibMZ -1
#SpecMZ 412.272
#SpecCharge 0
#internalFilename spec-00000.mgf

>collision 10
100.045929 98.163887
100.062347 13.81758
100.086891 30.315479
100.579094 13.31636
101.043312 18.05373
103.053177 161.711197
103.072807 15.37255
104.05751 38.676029
104.209335 11.32314
105.070068 1516.499023
105.090027 105.578903
105.101868 96.263046
105.167503 44.147228
105.190781 18.485229
105.231941 10.79762
105.273438 11.10417
105.293365 12.98225
105.316078 11.46144
105.500954 17.876301
105.566483 14.24491
105.713905 11.18531
106.073456 171.667297
106.109337 12.025
106.138649 14.33333
106.285004 13.19048
107.049767 67.05101
107.086212 612.77948
107.110641 48.537498
107.136948 19.860121
107.170448 11.66667
107.18515 21.513889
108.053055 42.046989
108.085815 112.653397
108.102829 17.40774
109.024956 52.037498
109.064751 300.596893
109.101692 134.635193
109.125206 21.388161
109.138031 13.5
109.16378 16.41176
110.066833 51.847618
110.095169 53.3522
111.04747 35.98682
111.080429 156.376801
111.097206 45.734699
111.117531 39.004169
111.177795 14.18596
112.074539 14.2
112.085274 14.93006
113.063263 16.555559
113.095184 193.531097
113.131287 19.993349
113.401001 15.91815
113.984863 33.671028
114.052513 62.837219
114.101837 24.668051
115.053299 171.484406
115.087318 17.16827
115.79351 10.66806
116.059395 56.886921
116.095558 18.281111
117.070007 352.493408
117.095741 22.845449
117.128792 16.28009
117.15239 13.0
117.173027 14.83553
118.0774 45.68803
119.044495 23.563379
119.085556 369.000305
119.106186 25.82744
119.143158 11.66164
119.517189 10.73472
120.053413 16.42518
120.084824 70.207779
120.107613 12.71429
120.8601 10.80702
120.993652 12.66667
121.064232 375.038696
121.101006 565.481506
121.135651 35.666672
121.16832 17.57143
121.217453 12.16667
121.231728 11.66739
122.067337 37.567219
122.09462 13.70167
122.106491 42.458328
122.128723 12.73333
122.481613 11.04861
122.989792 12.28399
123.079842 1024.759033
123.116325 75.371407
123.130188 36.004169
123.161224 18.433331
123.185226 30.37862
123.211212 10.85417
124.084412 89.868881
124.11039 12.21111
124.607773 14.98162
125.079681 11.57025
125.09642 53.170368
125.395119 10.9671
126.053856 28.528959
127.055222 37.05238
127.085754 10.18074
128.06192 139.130295
128.083878 20.8416
128.487869 18.95833
128.66748 10.77287
129.068893 132.517807
129.093338 22.681089
130.062103 26.391609
130.077866 165.258606
130.115143 14.49405
131.051498 36.188801
131.084244 204.294601
131.118896 15.49497
131.144867 11.96667
132.090103 48.722889
133.064026 73.06871
133.10054 366.7789
133.134476 27.849119
133.258209 12.00605
134.071808 17.50379
134.106171 56.401501
135.047211 18.405331
135.078766 94.047241
135.117432 335.651886
135.143402 23.677629
135.15538 16.561279
136.088425 31.297859
136.125809 42.796341
136.23877 14.54167
137.063614 35.71228
137.094666 25.843651
137.134064 12.56806
138.091339 69.231712
138.368317 10.33712
139.076462 25.73851
139.107742 41.299339
140.117447 15.04735
141.049835 11.66667
141.070679 52.060741
141.091187 232.826294
141.127213 19.778191
141.806778 10.84375
142.074432 92.10067
142.094955 18.675591
142.115677 16.884781
143.085709 154.431107
143.125824 15.9375
143.143036 12.35417
144.08638 131.702301
144.110001 21.037621
144.134857 10.37083
145.065582 21.600281
145.101135 496.392609
145.134766 21.17647
145.216309 17.3734
146.074387 32.861038
146.105896 66.846977
146.146515 10.25
147.040298 19.27417
147.081665 72.137154
147.112793 68.078453
148.085861 15.8532
148.119583 17.788071
149.06163 74.077278
149.095016 71.747543
149.131348 22.296431
150.062469 18.4067
150.095581 29.89583
151.075562 20.89852
151.111557 52.194019
153.07045 34.701302
153.127686 35.209091
154.080719 35.675442
154.126862 13.87719
155.085281 76.219017
155.11409 13.10669
156.079376 16.50029
156.093063 61.85376
157.062759 20.675591
157.101578 60.16898
158.065369 13.07417
158.081879 11.33542
158.110123 32.360119
158.811905 15.3125
159.077698 25.48521
159.113113 94.800087
159.160355 14.00417
159.249435 10.52381
160.08252 18.92178
160.118866 19.453871
161.029205 10.79647
161.064255 14.175
161.095352 393.604492
161.13385 40.70425
161.161133 15.88669
161.213593 10.39583
162.098312 66.748306
162.131485 25.8992
163.073364 39.845829
163.112686 349.727386
163.151566 34.993351
163.234497 13.24561
163.645798 11.40359
164.074615 19.72868
164.113815 67.653099
165.12207 24.302891
166.080032 23.50647
166.098862 14.3734
167.08226 25.80014
168.082901 43.364891
169.067596 14.77566
169.093796 46.501808
169.106842 25.77799
170.06752 10.1875
170.107773 37.33802
171.080353 82.869408
171.114044 47.508888
172.080811 13.5125
172.121643 16.527679
173.096375 43.524689
173.130722 115.2033
173.161987 15.00298
174.106644 10.23472
175.078461 23.466009
175.102142 31.32744
175.145737 58.35714
177.084763 20.024929
177.151917 27.72727
178.101929 35.34367
178.12677 39.572681
178.158936 12.78009
179.08519 32.800591
179.107574 143.876602
179.15126 10.51111
180.110046 25.123489
180.137024 15.20833
181.122025 297.61441
181.14476 30.44676
181.192581 11.39167
181.2677 12.12674
182.10379 14.16912
182.128525 58.572281
182.159088 12.00231
183.082397 14.3734
183.119232 24.526541
184.124496 24.959351
185.094223 30.348129
185.132187 37.94109
185.160568 13.91875
186.134918 14.21354
187.106018 28.013479
187.150208 46.000111
188.103958 16.466669
189.090759 98.001228
189.133072 31.5875
190.096634 17.02083
190.12146 16.685249
191.107941 100.917603
191.134521 21.11574
191.152481 33.8545
192.091049 24.370831
192.14296 27.51449
193.100174 27.765671
193.136932 13.17272
193.163544 11.17361
194.163696 12.36001
195.112869 18.228399
196.117722 12.83494
197.130646 16.52083
199.132675 177.311401
199.200577 10.40774
200.136002 17.886721
203.144089 39.24831
204.068024 10.54735
205.106079 36.518749
206.116592 44.334641
207.100388 74.036491
207.121109 27.80183
207.152145 13.26042
207.537048 24.003469
208.108749 19.00099
208.139221 10.30702
209.107773 11.00181
209.125717 18.490391
209.155228 51.750519
211.154205 32.783329
213.128433 31.52899
214.122208 15.1096
218.156876 36.96944
221.095398 11.51042
221.126694 13.29893
221.150558 16.3337
223.089401 10.48167
223.147293 12.94583
224.125504 36.15583
225.12352 15.5942
225.167526 24.971411
226.144318 46.347759
227.142929 30.707991
229.122986 20.56863
230.049332 14.69391
230.087082 13.58889
230.163101 13.57407
231.11235 15.20673
231.183136 11.83854
232.133926 20.834431
233.049988 16.150141
235.150818 28.54273
236.142593 12.0434
239.151703 14.54167
241.151611 11.21429
245.157013 11.07853
247.145081 14.92188
249.121338 14.83854
253.093964 18.31481
254.168594 14.86075
257.177094 14.6062
262.987976 22.67417
265.161652 22.6
266.065125 22.41465
267.091064 12.82001
270.086182 12.36012
276.200104 19.002319
278.207764 17.620041
282.151428 11.6756
283.167816 29.071569
283.195801 12.68297
286.18866 19.133551
296.077942 20.01515
301.023773 11.5375
311.132996 12.00463
323.208496 24.20833
324.218018 12.66739
340.215546 24.888889
359.21936 29.24214
394.248047 17.33333
395.18045 12.16667
395.241699 16.41338
396.181396 15.86058
412.210266 89.909607
412.246918 29.484541
413.210876 29.117359
413.959991 12.875
414.211548 10.51852
416.233337 12.27083
444.158478 10.543
910.849182 11.33929
1334.972656 11.70673
