>compound Sotalol
>formula C12H20N2O3S 
>ionization [M+H]+
>parentmass 273.128
#inchi InChI=1S/C12H20N2O3S/c1-9(2)13-8-12(15)10-4-6-11(7-5-10)14-18(3,16)17/h4-7,9,12-15H,8H2,1-3H3
#inchikey ZBMZVLHSJCTVON
#Ion_Source LC-ESI
#Instrument qTof
#Compound_Source Isolated
#PI Sirenas
#Data_Collector Ed Esquenazi 
#Scan -1
#Precursor_MZ 273.128
#ExactMass 0.0
#Charge 1
#CAS_Number N/A
#Pubmed_ID N/A
#Smiles N/A
#INCHI_AUX N/A
#Library_Class 3
#SpectrumID CCMSLIB00000004501
#IonMode Positive
#UpdateWorkflowName UPDATE-SINGLE-ANNOTATED-BRONZE
#LibraryQualityString Bronze
#TaskID d19310cd93df49b68e9fcbec27720eb5
##Scan# 3
#SpectrumFile Sotalol.mgf
#LibraryName fda_library.mgf
#MQScore -1
#Organism fda_library
#TIC_Query 0
#RT_Query -1
#MZErrorPPM -1
#SharedPeaks 0
#MassDiff 0
#LibMZ -1
#SpecMZ 273.128
#SpecCharge 0
#internalFilename spec-00000.mgf

>collision 10
104.04937 169.3694
104.073128 35.947369
104.3871 27.43236
104.608238 10.55592
105.044716 180.084
105.056793 115.077797
105.085495 13.45043
105.156052 7.6125
105.191849 48.558849
105.328812 10.5125
105.43364 29.844999
105.445091 9.0375
105.48101 37.059761
105.487267 7.173611
105.51223 33.35186
105.526489 27.39183
105.554497 63.709862
105.573853 31.047621
105.585503 56.265629
105.610992 58.684601
105.629639 9.327206
105.641541 37.18605
105.657104 30.50189
105.666809 10.02083
105.685318 31.183821
105.707565 73.438637
105.727615 18.08333
105.778328 34.414291
105.81662 15.14205
105.863594 10.54464
105.895813 16.004471
106.065598 55444.199219
106.235451 99.858994
106.248199 17.493361
106.269279 122.232101
106.282356 210.873795
106.293404 196.897507
106.314804 40.054901
106.325882 124.129204
106.33503 124.397697
106.352951 53.25771
106.361717 16.51372
106.393044 105.305199
106.408775 68.994179
106.420021 131.8936
106.437981 130.2659
106.447922 66.318977
106.462601 35.248161
106.475082 108.106003
106.491402 38.81282
106.520233 97.472809
106.53653 64.409622
106.553528 61.30278
106.559128 16.002319
106.570969 29.991739
106.585251 57.236698
106.620621 52.25428
106.63427 36.553879
106.652809 26.59091
106.662979 35.449039
106.674088 17.05625
106.688461 19.08
106.71019 38.411709
106.724396 28.000879
106.746803 11.1
106.801735 26.9375
106.847382 52.440109
106.868202 9.502016
107.001167 19.14167
107.008507 6.504167
107.073242 30959.210938
107.174286 29.953369
107.181755 53.09309
107.198235 73.418404
107.212326 158.249298
107.228432 23.135469
107.240135 27.64546
107.246124 11.59375
107.312263 29.0
107.339378 37.148281
107.362877 45.789291
107.371613 38.3125
107.388847 37.201569
107.406395 27.3125
107.497551 29.416941
107.513641 29.721319
107.532715 31.623831
107.555115 64.024544
107.571022 34.208061
107.593987 36.54454
107.616432 23.390631
107.639236 10.16667
107.660072 105.575996
107.682671 48.80201
107.743149 14.90909
107.754272 22.71607
107.79808 16.005211
107.816147 15.0016
107.97876 18.5
108.040421 20.859671
108.076447 381.535614
108.242126 19.68371
108.272095 40.75864
108.356033 26.118349
108.40213 8.6225
108.420013 6.180147
108.44426 13.8
108.463737 15.21607
108.532562 23.522011
108.622322 21.3125
108.63916 23.76008
108.883209 10.5625
109.822769 22.65625
110.377266 8.0
111.167206 10.84028
115.383072 32.608669
115.412033 18.54464
115.438316 19.844999
115.456863 36.417759
115.52977 10.875
115.557816 25.637899
115.582443 23.00329
115.622993 24.67391
115.644081 26.914289
115.887146 13.50893
116.04953 11503.410156
116.095512 87.858932
116.108681 14.03125
116.138435 14.54735
116.163925 25.891371
116.183128 19.566179
116.190926 18.6056
116.197197 20.663309
116.215195 7.0025
116.243065 45.9375
116.2491 25.47266
116.269684 13.55
116.291962 22.519779
116.305794 34.8064
116.324966 72.268784
116.344582 42.216221
116.37455 25.20513
116.386871 22.922501
116.401413 51.002048
116.418251 12.48098
116.427063 17.207109
116.441788 37.967129
116.473694 38.520828
116.488533 34.234718
116.504028 16.3125
116.531303 44.620689
116.558479 24.408779
116.569412 30.76667
116.581017 16.00658
116.607567 10.7
116.615944 8.946428
116.647934 32.620689
116.668472 21.78125
116.690239 16.507351
116.739006 60.11594
116.798958 37.00647
116.815491 14.00833
116.962814 8.03125
116.987099 24.76667
117.057137 10604.929688
117.104485 69.668808
117.156479 67.450233
117.163429 30.507311
117.228249 43.54438
117.245644 62.96064
117.289474 16.38068
117.304787 90.445297
117.365463 60.587791
117.390862 36.175991
117.45414 23.285721
117.463448 47.010422
117.509727 17.01042
117.528641 25.66667
117.56723 16.86862
117.589867 19.34914
117.719498 9.5
117.771049 16.56818
117.827705 31.324261
117.846535 15.60771
117.923576 11.22917
118.064888 6944.496094
118.097534 87.846039
118.111038 22.50106
118.129929 22.34914
118.175323 10.01815
118.190582 20.90139
118.210938 6.389423
118.22847 30.516069
118.292587 44.580891
118.309616 16.4375
118.436371 17.30625
118.481682 14.00139
118.519745 28.6875
118.529167 25.5
118.550224 11.64583
118.576897 43.21767
118.622002 9.105603
118.660347 6.8375
118.937057 8.45
118.9673 9.459239
119.060608 4907.682129
119.105186 58.243649
119.14196 17.347219
119.189621 7.223214
119.198631 15.51148
119.217461 12.66667
119.223824 24.66667
119.274651 12.38281
119.312599 28.028851
119.332085 19.11364
119.346817 9.666667
119.426529 16.30179
119.555565 11.625
119.708115 8.6125
119.839127 10.5125
120.079987 261.259491
120.233978 20.04018
120.63488 15.03571
121.16272 12.05357
122.198868 38.50069
124.618118 8.035714
130.064224 102.8209
131.058914 283.878815
131.116364 7.041667
131.271729 21.00189
131.355484 16.545
131.383438 13.98818
131.415298 16.0
131.599014 14.14464
131.750565 29.64469
131.987289 12.46154
132.068161 8757.583008
132.117462 36.300831
132.133987 31.938601
132.162567 11.0625
132.176132 23.375
132.190216 46.5168
132.217926 30.39159
132.230225 24.890631
132.242538 31.719509
132.266037 41.16293
132.310989 104.255501
132.322495 38.574409
132.330109 54.5
132.34465 67.240936
132.356476 135.565308
132.366791 38.785709
132.402908 104.8153
132.421768 123.867203
132.488449 104.707397
132.520538 241.093796
132.534348 38.735371
132.554703 36.098209
132.573654 42.90192
132.602432 18.525
132.636002 48.60651
132.650726 27.19231
132.674454 25.512501
132.683609 73.045959
132.710617 16.52948
132.718796 8.505682
132.734863 31.8675
132.783447 49.55357
132.800797 44.545238
132.846588 28.125
132.878983 7.509615
132.931122 16.648279
132.939041 14.70833
132.969543 11.08173
133.019379 14.53189
133.052719 64.97406
133.076523 135747.5
133.436447 87.211723
133.452255 76.044403
133.466766 113.181801
133.480515 112.620003
133.50618 60.0625
133.528519 25.902901
133.541382 40.625
133.553192 99.678719
133.585281 201.581604
133.613251 125.579102
133.64505 45.657139
133.654434 125.545303
133.671326 156.116806
133.687622 47.550591
133.706924 83.236481
133.724411 45.332241
133.736282 30.041691
133.751343 46.91029
133.761719 12.90865
133.818604 100.779503
133.838318 15.01042
133.872208 53.426159
133.883713 9.360119
133.907593 13.5125
134.058609 82.58036
134.132095 99.58461
134.148224 149.467194
134.183609 162.415405
134.236221 147.914703
134.249344 32.54414
134.257339 41.92046
134.28125 61.80452
134.29776 37.746712
134.316864 40.243252
134.328293 56.958778
134.358459 54.94035
134.377045 68.901657
134.396698 64.076202
134.420578 39.479759
134.463654 62.010201
134.503799 44.464161
134.536469 14.14583
134.544403 11.65341
134.574142 62.46595
134.625046 52.25174
134.694763 16.160721
134.722321 19.66827
134.842529 48.217621
134.944595 51.57143
134.996933 29.96991
135.166565 9.1875
135.202805 11.26042
135.292084 19.46023
135.413101 12.84615
135.426239 33.612801
135.551132 18.674749
135.595474 30.7544
135.871246 11.0
135.908127 16.9
136.013199 8.653846
136.032028 37.222832
136.167419 24.06061
136.316223 6.4
136.497299 12.77885
137.11087 8.05
142.319519 8.5625
143.071411 116.5867
144.080307 525.93512
144.115067 6.625
147.091721 139.396194
147.120834 6.5625
148.099991 44.29018
148.112518 84.645447
149.120712 459.3349
149.323242 11.0928
149.467819 12.51042
150.913132 11.28125
158.089294 52.367378
160.114212 47.201771
160.418228 9.556818
161.107941 177.017593
161.269119 22.1875
161.476913 9.780092
161.538773 14.52083
171.031357 82.881706
171.057678 5.5125
174.436462 14.92614
175.042709 6.278409
175.122223 367.04541
175.149872 12.08224
175.177231 9.674569
175.541153 38.002399
176.130127 1417.526978
176.195709 7.5625
176.407974 18.033331
176.417618 9.508928
176.650848 15.96976
176.741669 7.266448
176.820236 12.25
177.129898 7.620193
177.315567 7.011364
177.454895 12.84615
184.038651 114.642799
184.653732 9.3025
196.042145 10.0
211.766937 15.59927
211.874634 6.797794
212.116409 15.0
213.019913 69.816544
213.069565 515.137207
213.295654 15.5
213.415009 10.0125
213.436417 10.68015
214.39238 9.102273
218.594818 24.07337
283.425262 9.1875
583.785522 12.16964
729.499268 24.0947
790.473938 55.609379
1010.657593 21.56653
1087.499023 8.519397
