>compound Thioguanine
>formula C5H5N5S 
>ionization [M+H]+
>parentmass 168.032837
#inchi InChI=1S/C5H5N5S/c6-5-9-3-2(4(11)10-5)7-1-8-3/h1H,(H4,6,7,8,9,10,11)
#inchikey WYWHKKSPHMUBEB
#Ion_Source LC-ESI
#Instrument qTof
#Compound_Source Isolated
#PI Sirenas
#Data_Collector Ed Esquenazi 
#Scan -1
#Precursor_MZ 168.034
#ExactMass 0.0
#Charge 1
#CAS_Number N/A
#Pubmed_ID N/A
#Smiles N/A
#INCHI_AUX N/A
#Library_Class 3
#SpectrumID CCMSLIB00000005164
#IonMode Positive
#UpdateWorkflowName UPDATE-SINGLE-ANNOTATED-BRONZE
#LibraryQualityString Bronze
#TaskID d19310cd93df49b68e9fcbec27720eb5
##Scan# 2
#SpectrumFile Thioguanine.mgf
#LibraryName fda_library.mgf
#MQScore -1
#Organism fda_library
#TIC_Query 0
#RT_Query -1
#MZErrorPPM -1
#SharedPeaks 0
#MassDiff 0
#LibMZ -1
#SpecMZ 168.034
#SpecCharge 0
#internalFilename spec-00000.mgf

>collision 10
101.922173 61.160091
102.932526 147.919998
107.034233 1895.223022
107.07959 18.471149
107.220825 24.11574
107.291397 29.125
107.350548 14.11111
108.980316 217.0728
109.049713 173.013199
109.163986 31.040001
109.407654 8.008333
109.444641 130.878403
109.640991 19.69231
109.834877 8.225
109.965233 38.049419
114.011131 60.694439
119.938469 278.024597
119.964386 19.14286
123.997459 284.071808
124.453651 10.68056
125.403694 22.014709
125.949699 16.1
125.990707 238.600296
126.012009 3192.589111
126.219238 21.028851
126.246376 33.285709
126.394447 33.14286
126.622711 36.222561
126.767159 61.272732
132.940643 51.716839
133.456696 10.0625
133.661545 24.25
133.891479 19.65761
134.044922 7728.280762
134.09671 42.653221
134.142242 9.8
134.15773 16.75
134.179031 28.89352
134.199051 8.45
134.257812 17.322371
134.296738 39.440479
134.35466 72.032417
134.395157 75.086273
134.42926 15.25
134.453232 88.960533
134.471619 27.210529
134.540207 14.00543
134.575363 16.66667
134.70575 16.56818
134.884918 9.240385
134.955963 256.308014
135.307983 16.066179
150.149063 39.689999
150.191528 19.00658
150.208588 9.008333
150.222214 60.25528
150.268219 59.049599
150.289612 13.005
150.306946 26.265631
150.426117 21.028851
150.460251 10.125
150.606049 16.0
151.006775 14383.049805
151.058273 109.0
151.096024 92.166656
151.131973 33.554192
151.165024 96.001312
151.192215 19.89286
151.216568 68.041656
151.238068 39.008339
151.258972 42.107761
151.287003 60.208328
151.308884 20.408331
151.340042 29.027781
151.399628 12.89286
151.417664 22.00658
151.450363 12.8
151.486511 71.360291
151.506851 44.0
151.533249 16.125
151.576065 56.22237
151.706726 12.125
152.309357 29.65407
152.779617 31.142241
166.97345 17.045
167.067856 16.17308
167.2733 17.375
167.29277 10.125
167.47641 22.5
167.615479 21.347219
168.005829 9.8
168.032837 7869.39502
168.089523 42.976349
168.118927 45.224998
168.150253 10.8
168.180374 30.026159
168.203735 145.160507
168.230011 15.01923
168.277176 24.125
168.338318 11.125
168.390076 14.5625
168.410721 22.78241
168.506409 27.785721
168.649918 34.004311
168.82814 28.89352
169.42334 18.17308
170.352905 40.371208
171.071075 25.47368
177.977188 26.644739
178.94516 52.71627
363.161041 37.55769
