>compound Diphenylhydramine
>formula C17H21NO 
>ionization [M+H]+
>parentmass 256.17
#inchi InChI=1S/C17H21NO/c1-18(2)13-14-19-17(15-9-5-3-6-10-15)16-11-7-4-8-12-16/h3-12,17H,13-14H2,1-2H3
#inchikey ZZVUWRFHKOJYTH
#Ion_Source LC-ESI
#Instrument qTof
#Compound_Source Isolated
#PI Sirenas
#Data_Collector Ed Esquenazi 
#Scan -1
#Precursor_MZ 256.17
#ExactMass 0.0
#Charge 1
#CAS_Number N/A
#Pubmed_ID N/A
#Smiles N/A
#INCHI_AUX N/A
#Library_Class 3
#SpectrumID CCMSLIB00000006570
#IonMode Positive
#UpdateWorkflowName UPDATE-SINGLE-ANNOTATED-BRONZE
#LibraryQualityString Bronze
#TaskID d19310cd93df49b68e9fcbec27720eb5
##Scan# 3
#SpectrumFile Diphenylhydramine.mgf
#LibraryName fda_library.mgf
#MQScore -1
#Organism fda_library
#TIC_Query 0
#RT_Query -1
#MZErrorPPM -1
#SharedPeaks 0
#MassDiff 0
#LibMZ -1
#SpecMZ 256.17
#SpecCharge 0
#internalFilename spec-00000.mgf

>collision 10
100.93631 19.002319
101.920784 8.59375
102.046547 303.645599
102.066582 8.9375
110.011383 117.431198
111.933365 37.441212
114.066856 17.5625
114.621101 40.001141
115.054474 2423.508057
115.146904 17.16806
115.368202 19.464939
115.423233 20.529409
115.486458 60.787498
115.682373 41.720001
124.401344 69.310349
126.045265 430.295013
126.397995 22.723221
126.418266 31.69565
127.053955 318.230499
127.312248 17.58882
127.37114 16.33333
127.406479 27.02264
127.467979 21.18371
127.516449 18.03879
128.061447 7687.128906
128.109909 50.449249
128.209 22.523809
128.251205 22.327209
128.268539 23.44231
128.31813 36.671879
128.343124 41.8307
128.370544 31.7544
128.432266 17.335649
128.593735 27.512501
128.692337 37.667759
128.914871 21.25568
134.9534 49.70454
138.04483 110.263199
138.437469 31.9879
138.592865 30.722219
139.054352 203.665695
140.224121 22.578529
140.479843 26.09766
140.563828 30.27574
140.632599 27.84211
141.069046 7106.223145
141.127747 74.583023
141.140335 28.151211
141.268906 22.098789
141.318268 22.695311
141.401749 43.041672
141.496201 29.700001
141.554153 27.02948
141.587051 19.54891
141.651871 17.58036
141.719543 16.0625
142.178146 22.18371
142.470139 17.506941
142.627975 21.04571
148.210037 32.777931
149.58226 29.074699
150.045425 375.066315
150.114868 28.02622
150.161743 22.72473
150.336716 16.078529
150.411194 33.74004
150.783218 18.04167
150.849014 13.54006
151.053986 12314.44043
151.122177 24.38056
151.177612 88.004807
151.202225 111.439697
151.231369 171.375397
151.261124 64.447182
151.292908 113.656998
151.316986 107.150902
151.336502 94.989304
151.361237 98.239899
151.403076 127.573502
151.448486 73.300743
151.474991 92.376923
151.520782 52.096439
151.561447 108.844299
151.605377 172.710098
151.632767 76.619202
151.700714 55.039219
151.802277 39.610748
151.866043 54.11356
151.890015 71.166656
151.940262 55.12331
151.970078 84.508926
152.004868 23.33675
152.06218 164807.40625
152.249451 18.555679
152.436417 38.4725
152.461578 61.726082
152.47821 40.216358
152.508591 99.18
152.542831 90.365967
152.63855 72.95018
152.656067 76.667427
152.686295 132.885406
152.725159 46.944271
152.743988 29.293369
152.772308 140.765594
152.797119 28.003241
152.819046 59.158718
152.846008 35.687939
152.862778 29.40139
152.927307 66.135094
153.127396 42.20417
153.152054 36.89286
153.173767 22.511971
153.209335 33.106441
153.284653 33.799999
153.334595 37.648281
153.358948 16.0
153.446045 54.328251
153.500275 21.64464
153.581818 16.66667
153.600784 59.9184
153.626282 35.0
153.719528 21.89286
153.936752 41.25568
154.238663 21.557871
154.333481 32.58065
155.472916 22.080641
155.506989 25.04348
155.659485 21.328409
157.406815 18.62331
163.052246 138.561905
163.419266 21.393379
163.44339 34.125
163.477112 30.55633
163.783951 33.145828
163.881699 22.55357
164.028793 17.545
164.061554 722.919312
164.129456 173.137497
164.167511 151.501205
164.194382 163.041595
164.220245 132.378494
164.245087 102.043297
164.263855 111.9711
164.291321 98.972183
164.320114 116.847504
164.36026 63.574409
164.399445 60.471149
164.460968 31.02632
164.484344 51.74395
164.509644 40.260422
164.529922 48.8288
164.54631 18.0625
164.590988 54.065441
164.656891 51.191181
164.809662 21.04348
164.849655 57.506672
164.899033 39.875
164.925964 18.67457
164.956238 69.465599
164.970749 24.225
164.992676 25.005951
165.069946 188709.90625
165.492447 144.071304
165.526154 113.586197
165.579971 130.674103
165.629196 95.425346
165.668869 79.92923
165.704712 88.26799
165.73703 72.128448
165.758057 58.826691
165.792435 43.108898
165.836746 93.027512
165.864502 75.034912
165.902679 65.787498
165.962479 55.504459
165.974411 38.845928
166.434769 46.097691
166.464722 43.153301
166.501526 76.024391
166.532501 57.627071
166.572266 73.102287
166.619492 77.694283
166.638199 125.533501
166.670563 31.070709
166.688721 81.706337
166.729874 42.634838
166.750183 45.225571
166.779175 31.8076
166.816513 24.877871
166.883423 49.938271
166.928375 38.533119
167.036133 59.599998
167.05838 43.74881
167.08519 69008.523438
167.400803 4.53125
167.539261 38.185211
167.555878 48.464378
167.576614 53.205589
167.605133 45.622959
167.623093 124.130096
167.672684 39.81126
167.684967 95.197304
167.707825 25.029949
167.729553 52.44656
167.751602 59.936298
167.781693 17.2122
167.813095 89.655289
167.835831 24.41988
167.862106 48.97747
167.898849 41.385029
167.923386 30.285379
167.958679 24.480289
167.993668 39.5625
168.02269 34.574871
168.049744 24.5
168.148483 27.54327
168.172806 48.071121
168.199951 33.711868
168.250824 43.640629
168.273804 30.980261
168.339859 50.740631
168.352692 34.505001
168.395538 32.058819
168.429443 22.133329
168.460968 29.340799
168.645569 21.50481
168.776642 21.1875
168.834457 31.6625
168.89415 23.050211
169.061218 90.008011
169.275131 54.93111
169.447632 25.36364
169.92659 17.117649
171.104462 30.124041
172.972839 27.28409
177.348709 97.194557
192.927643 26.73558
204.08667 26.58
450.384613 16.50625
729.726135 76.785652
729.836914 18.782009
907.551208 57.93507
