>compound Capecitabine
>formula C15H22FN3O6 
>ionization [M+H]+
>parentmass 360.158
#inchi InChI=1S/C15H22FN3O6/c1-3-4-5-6-24-15(23)18-12-9(16)7-19(14(22)17-12)13-11(21)10(20)8(2)25-13/h7-8,10-11,13,20-21H,3-6H2,1-2H3,(H,17,18,22,23)/t8-,10-,11-,13-/m1/s1
#inchikey GAGWJHPBXLXJQN
#Ion_Source LC-ESI
#Instrument qTof
#Compound_Source Isolated
#PI Sirenas
#Data_Collector Ed Esquenazi 
#Scan -1
#Precursor_MZ 360.158
#ExactMass 0.0
#Charge 1
#CAS_Number N/A
#Pubmed_ID N/A
#Smiles N/A
#INCHI_AUX N/A
#Library_Class 3
#SpectrumID CCMSLIB00000006397
#IonMode Positive
#UpdateWorkflowName UPDATE-SINGLE-ANNOTATED-BRONZE
#LibraryQualityString Bronze
#TaskID d19310cd93df49b68e9fcbec27720eb5
##Scan# 3
#SpectrumFile Capecitabine.mgf
#LibraryName fda_library.mgf
#MQScore -1
#Organism fda_library
#TIC_Query 0
#RT_Query -1
#MZErrorPPM -1
#SharedPeaks 0
#MassDiff 0
#LibMZ -1
#SpecMZ 360.158
#SpecCharge 0
#internalFilename spec-00000.mgf

>collision 10
103.030991 88.787033
110.819862 22.125
111.408035 40.808708
111.498978 18.48077
111.637489 33.76889
112.030434 9910.381836
112.074417 53.005211
112.091187 22.62818
112.101685 22.840281
112.120316 49.144691
112.154907 17.516069
112.194702 28.504169
112.223579 19.125
112.234482 30.130211
112.361343 36.89024
112.40834 31.04167
112.455734 26.52
112.493011 16.111111
112.535233 15.13636
112.556091 16.0
112.711777 24.88903
112.729309 19.516069
112.736465 22.01136
112.86969 16.08333
113.014503 12048.280273
113.063377 42.612499
113.07309 25.55373
113.102402 25.6875
113.120796 28.77841
113.147057 28.067499
113.158195 50.703529
113.194717 40.137501
113.28405 18.225
113.317345 16.603319
113.33963 17.5504
113.363068 49.034389
113.387779 15.00298
113.495171 15.52
113.554504 24.06612
113.573051 19.8125
113.595253 29.00102
113.672844 43.559212
113.747337 14.62348
113.754753 25.030411
113.983528 20.34375
113.989746 28.1096
114.016922 73.014008
114.066635 21.513081
114.222748 13.07031
114.81591 28.70417
114.964363 38.128201
117.052673 91.722816
125.469955 23.011971
128.720306 29.28409
128.999619 20.375
129.175476 21.50658
129.244873 92.18541
129.283966 229.7258
129.298691 48.50169
129.32251 147.047104
129.348206 87.741524
129.365875 104.876999
129.388885 263.744812
129.408813 305.873291
129.431519 94.68409
129.444214 291.830688
129.468842 210.872192
129.495117 146.796295
129.50737 105.432098
129.531555 230.943802
129.555389 108.116798
129.577942 61.345001
129.587967 55.111179
129.602768 57.558189
129.640259 47.400002
129.655502 26.614389
129.678177 39.32703
129.714951 65.342819
129.741409 52.062859
129.799286 43.843201
129.85939 79.351593
129.869064 64.613167
129.957825 79.417252
130.01387 117.0186
130.041458 286439.0
130.411987 58.172791
130.433319 209.733093
130.452652 90.513069
130.480255 92.477676
130.510971 258.272888
130.534241 93.584587
130.555588 126.2957
130.576889 173.199905
130.583771 57.611111
130.6017 190.146194
130.617554 127.5951
130.625107 51.46521
130.642593 128.460098
130.653229 57.721432
130.668823 22.664499
130.687622 88.491737
130.69722 69.816811
130.715927 100.102997
130.736832 82.1856
130.759109 14.15132
130.777466 48.33643
130.802109 27.03125
130.813217 53.20472
130.842148 46.494831
130.867035 32.887989
130.877838 24.049999
130.911087 34.94331
130.949188 96.613701
130.983368 80.454483
131.043198 1716.875
131.090912 44.51429
131.140793 13.88911
131.164261 96.470139
131.185547 49.492321
131.212677 42.409721
131.231171 76.159592
131.255371 30.788031
131.264206 51.982208
131.298401 52.20998
131.319031 35.53125
131.327789 31.06806
131.336807 40.13065
131.352966 26.76593
131.379303 33.16164
131.412018 31.7197
131.464661 41.80798
131.763107 22.553881
131.782394 34.10976
131.973892 33.575562
132.00267 37.579609
132.10202 28.555559
132.209991 13.11773
132.258102 27.07674
132.274033 32.77174
132.376221 15.0928
132.416885 15.62284
132.51413 42.055809
132.654373 17.214279
132.664078 21.586889
132.689575 33.921879
132.886871 19.522011
133.292389 16.72024
133.699997 30.70417
133.7164 35.06926
133.769592 13.84722
134.706009 13.51815
137.118866 15.0125
138.005127 45.423321
141.276581 18.75568
144.364334 29.796049
147.193069 26.358141
155.221268 14.00694
155.24678 15.21429
155.256653 28.532261
155.637634 26.628571
156.020432 9014.917969
156.073181 87.708847
156.124023 76.729134
156.133011 45.510609
156.170731 51.790379
156.202835 35.26992
156.222778 19.797791
156.238434 17.053881
156.26297 24.013889
156.332825 14.0504
156.415482 19.26667
156.441605 16.236839
156.542725 42.645409
156.598297 14.46314
156.862 36.25
156.898849 13.98818
157.025833 38.224998
157.806503 18.77574
167.986847 21.80625
172.814316 20.671881
172.982849 22.027781
173.005783 61.999538
173.024429 17.633329
173.065231 65.716667
173.111145 39.50103
173.133057 23.64464
173.156281 16.14583
173.177292 39.565639
173.196411 37.322498
173.225586 24.408779
173.235291 30.782049
173.252731 114.137901
173.300583 15.90833
173.32962 18.112499
173.362991 15.1875
173.390457 17.65517
173.400192 21.41848
173.461807 23.071119
173.546249 16.0875
173.638687 21.765631
173.739792 27.03064
173.863205 19.11364
173.911041 15.08173
173.984192 25.3125
174.031006 42056.410156
174.205566 87.995132
174.231323 32.55357
174.267929 67.864647
174.284439 58.812908
174.298035 29.175871
174.314972 28.026819
174.330933 33.505001
174.346359 38.132809
174.360474 31.50481
174.395233 48.266449
174.413986 61.651211
174.436584 28.018141
174.449585 14.75778
174.468628 117.345497
174.493423 83.631111
174.508484 76.611656
174.533722 54.37236
174.561996 90.108932
174.586823 16.797791
174.601898 17.01651
174.631805 109.198303
174.657562 23.086439
174.670029 17.889709
174.703522 48.1366
174.720291 24.4
174.75148 60.443802
174.868668 22.142691
174.949554 21.277781
175.031281 413.406403
175.906769 57.660728
200.122101 176.260803
213.212097 18.342991
243.975052 17.125
244.106308 88.59877
494.448853 14.88095
789.723206 51.82045
1001.431335 17.835649
1012.764648 34.199291
1077.073486 19.22238
1172.304321 15.0
1278.017212 16.03064
