>compound cyclo(L-Phe-L-Pro)
>formula C14H16N2O2 
>ionization [M+H]+
>parentmass 245.12709
#inchi InChI=1S/C14H16N2O2/c17-13-12-7-4-8-16(12)14(18)11(15-13)9-10-5-2-1-3-6-10/h1-3,5-6,11-12H,4,7-9H2,(H,15,17)/t11-,12-/m0/s1
#inchikey QZBUWPVZSXDWSB
#Ion_Source DI-ESI
#Instrument qTof
#Compound_Source Isolated
#PI Keyzers
#Data_Collector R Keyzers
#Scan -1
#Precursor_MZ 245.128
#ExactMass 244.121
#Charge 1
#CAS_Number 3705-26-8
#Pubmed_ID N/A
#Smiles N/A
#INCHI_AUX N/A
#Library_Class 3
#SpectrumID CCMSLIB00000007044
#IonMode Positive
#UpdateWorkflowName UPDATE-SINGLE-ANNOTATED-BRONZE
#LibraryQualityString Bronze
#TaskID 76b66bf1ccd04cec9993212b36387ea3
##Scan# 4
#SpectrumFile CDB02_15F_pos_MSMS_001_1.mgf
#LibraryName gnps_library.mgf
#MQScore -1
#Organism test_rob_keyzers
#TIC_Query 0
#RT_Query -1
#MZErrorPPM -1
#SharedPeaks 0
#MassDiff 0
#LibMZ -1
#SpecMZ 245.128
#SpecCharge 0
#internalFilename spec-00000.mgf

>collision 10
21.032364 13.06618
21.653521 19.16346
28.420969 14.44643
28.995604 45.599998
29.02758 25.075001
30.701927 19.03125
33.014538 32.720242
35.150597 13.68056
35.665359 11.34722
36.976456 17.75
39.935646 21.00658
41.654442 59.367649
42.03936 104.917397
42.059715 12.01786
43.053963 237.745102
44.050251 73.769234
44.620281 32.845001
44.793358 24.08654
46.569588 13.33333
46.817017 16.04167
51.584644 23.875
55.525047 29.6
56.426842 13.08333
57.071701 95.84375
57.093967 15.8
59.506496 13.375
60.042973 29.889709
60.690422 14.01389
60.903233 25.89286
62.060394 645.878479
62.120445 18.200001
62.479897 20.0625
64.89357 57.066669
66.937874 25.009609
67.05014 40.20454
69.067375 96.905487
70.065422 1805.542969
70.142227 19.04167
70.161804 10.0625
70.299263 16.625
71.268394 11.75
72.802002 16.674999
78.409645 21.013889
79.57534 14.68056
81.066231 131.201202
82.818268 19.04167
83.593613 15.08654
84.0784 35.148811
85.072426 353.589294
85.097916 129.587296
85.520157 10.8
86.079193 63.612499
90.972008 261.333313
91.04847 33.75
93.067039 82.054817
95.090752 66.900864
97.035965 25.72024
97.077141 104.805
97.101379 72.006577
97.927452 15.05
98.058434 114.413498
100.079643 62.695511
101.227798 11.0625
101.902786 13.04167
102.091301 1227.108032
102.185867 25.045
102.91507 22.1875
103.094353 89.33654
105.790543 10.5625
107.964333 63.222832
109.066696 47.520161
109.09465 10.01786
111.076622 51.003792
113.121155 75.654068
114.082634 76.612503
115.037735 100.0
116.389412 27.48214
116.830338 22.28409
117.543419 23.322371
118.061157 46.066181
119.057152 43.111839
119.266563 10.0
119.388191 10.5625
120.080666 1052.112061
120.180389 19.066179
121.079399 119.493401
123.044197 63.5625
123.115921 627.579285
123.217606 11.01786
124.105003 105.201698
125.082291 64.462837
125.284019 14.16071
126.29335 19.066179
128.003159 12.66667
128.110489 71.556038
133.271988 19.625
135.119934 83.782608
137.069122 101.281303
138.076828 71.280167
139.077713 129.837006
142.132858 40.75
142.35614 17.03125
143.088318 114.260399
143.159622 82.157051
144.528168 10.34722
145.933243 13.66667
146.059952 93.801727
146.502945 17.125
147.732651 35.01923
148.073959 219.796204
148.18187 14.04167
149.120758 22.16667
149.163315 28.125
149.420502 19.285721
150.129669 62.0
152.112686 42.00658
152.86644 17.008329
153.132019 86.326607
154.068909 238.679993
154.134277 10.25
154.838303 19.009609
159.052994 13.01136
159.09375 29.778851
159.291183 49.408329
160.112961 327.449799
161.113541 173.333298
161.177582 10.875
163.061966 37.96196
163.139191 122.533302
163.363693 38.69397
165.126694 12.66667
166.08548 32.53125
168.125198 114.464302
168.874741 16.55682
170.087479 53.603569
170.733459 21.008329
171.053574 54.244999
171.107513 11.0
171.155853 26.28409
171.274307 13.28409
172.037659 34.408329
172.110123 112.615402
173.129013 173.777802
174.17868 26.32143
175.26799 179.410202
176.088348 68.100609
177.080322 89.428574
180.169937 157.177597
180.244705 10.45
180.391846 23.14286
180.70108 16.375
181.344894 44.099998
182.094635 62.36742
184.078873 21.0
184.641083 25.183821
184.96817 49.125
185.105362 91.235474
186.104187 61.025002
186.135956 48.901321
187.12056 1110.883057
187.245941 15.0
187.630447 19.04167
188.122269 137.695297
189.083527 12.10227
189.133041 141.266693
189.212692 12.8
190.98497 10.875
191.171524 60.20454
198.110123 71.907257
198.184158 84.0
199.124802 79.281967
200.099289 20.25
201.827026 14.33333
202.078064 17.89286
202.113831 11.25
202.697968 23.75
202.85466 27.33333
203.124908 107.0345
206.033173 16.14286
208.156311 201.490204
208.782974 21.654409
209.121796 66.107758
209.169128 70.521553
210.156281 142.093796
212.72821 11.08333
213.027847 10.45
215.114944 1175.396973
215.243195 12.0625
215.64975 22.408331
216.11734 207.071793
217.13414 711.480225
217.211182 20.008329
217.358261 17.778851
218.126892 41.53289
218.257309 13.05
224.893417 10.05
225.739929 49.222221
226.14035 117.2257
226.176178 39.450001
227.095871 87.564812
227.137085 61.048908
228.066223 73.002777
228.113739 68.165703
228.161407 37.125
228.265228 26.08333
231.072418 24.025
237.486847 17.04167
241.445663 14.01389
242.984146 33.111839
243.116455 170.535004
243.172348 258.481903
243.317032 20.36364
243.673492 182.893494
244.066803 23.125
244.126785 379.142212
244.262436 30.14286
244.750381 10.0
245.12709 2224.216064
245.267181 43.44643
245.481094 17.125
245.89328 39.900002
246.143524 169.612793
246.247437 10.34722
246.288055 25.66667
246.747375 31.125
247.128036 38.69231
247.280869 77.103813
248.424072 13.28409
252.656723 21.450001
255.722 24.322371
257.810059 20.008329
265.35257 20.04167
266.675507 15.55682
302.193878 462.695496
303.198975 126.315201
303.833649 12.10227
311.80722 11.01136
313.384094 20.240391
333.273071 17.471149
339.026825 22.045
347.219696 25.360291
354.624023 14.00961
357.975098 66.851418
360.243927 12.24039
363.031464 15.125
373.507507 17.889709
376.159424 16.035721
377.602844 10.0625
384.299225 87.449997
389.769196 33.6875
394.034058 13.225
394.179596 20.075001
401.834473 15.57143
414.387146 25.322371
422.684937 11.20833
445.734222 19.16346
446.27063 13.25
449.153229 12.0
450.59494 11.18382
463.24118 14.16667
469.071503 35.160709
472.797455 11.0625
476.738983 58.032139
483.984436 29.10227
487.419525 22.92045
491.046417 26.44022
491.778137 15.92045
493.510498 21.444441
498.811737 65.013893
509.203857 15.33333
513.072571 81.760406
526.762878 11.05
527.294434 24.796049
528.595276 20.125
533.905884 10.68056
534.07312 13.16667
548.670959 31.444441
554.268982 27.2663
558.194397 16.0
568.384094 10.225
576.570557 27.45455
584.964905 39.0
585.564453 20.111111
590.657593 11.125
592.54187 12.375
596.877625 20.471149
601.379517 25.027781
606.391785 11.025
625.013733 10.16667
636.691895 11.04167
645.059082 10.0625
658.88562 11.00833
663.447876 23.007351
666.096069 11.16071
668.333069 16.025
671.50116 33.125
682.593079 16.674999
683.327026 10.0625
683.404541 28.066179
686.674561 40.01667
692.091003 12.0625
700.960083 11.0
704.101562 21.889709
706.01886 22.625
711.254944 14.32143
717.779053 18.471149
729.557739 12.2
731.568787 37.211208
751.662415 15.02778
752.515442 13.03125
754.971069 15.45
756.455627 41.00544
756.584045 22.72024
762.565247 29.225
776.178406 16.240391
790.046936 13.55682
805.777405 10.04167
806.824219 18.0
814.983826 27.90132
817.113281 33.36364
824.720337 13.34722
827.955078 12.2
834.249146 21.14286
839.24585 25.125
846.414978 27.57143
846.829895 32.272732
847.587585 26.66667
882.270264 11.0
889.883484 13.18382
896.684265 11.16667
910.627502 13.45
919.006042 21.444441
954.616516 12.04167
955.574402 16.375
978.868774 22.08654
980.130249 19.20833
984.244751 15.03571
986.446655 15.125
999.173828 11.00961
