>compound Sotalol
>formula C12H20N2O3S 
>ionization [M+H]+
>parentmass 273.128
#inchi InChI=1S/C12H20N2O3S/c1-9(2)13-8-12(15)10-4-6-11(7-5-10)14-18(3,16)17/h4-7,9,12-15H,8H2,1-3H3
#inchikey ZBMZVLHSJCTVON
#Ion_Source LC-ESI
#Instrument qTof
#Compound_Source Isolated
#PI Sirenas
#Data_Collector Ed Esquenazi 
#Scan -1
#Precursor_MZ 273.128
#ExactMass 0.0
#Charge 1
#CAS_Number N/A
#Pubmed_ID N/A
#Smiles N/A
#INCHI_AUX N/A
#Library_Class 3
#SpectrumID CCMSLIB00000004500
#IonMode Positive
#UpdateWorkflowName UPDATE-SINGLE-ANNOTATED-BRONZE
#LibraryQualityString Bronze
#TaskID d19310cd93df49b68e9fcbec27720eb5
##Scan# 2
#SpectrumFile Sotalol.mgf
#LibraryName fda_library.mgf
#MQScore -1
#Organism fda_library
#TIC_Query 0
#RT_Query -1
#MZErrorPPM -1
#SharedPeaks 0
#MassDiff 0
#LibMZ -1
#SpecMZ 273.128
#SpecCharge 0
#internalFilename spec-00000.mgf

>collision 10
102.23423 35.174419
102.497513 11.88281
105.07045 7.067935
105.494347 19.83523
105.62748 14.56806
105.855675 11.375
106.065155 5123.725098
106.108559 46.45705
106.124886 21.648279
106.136238 19.382811
106.229012 8.166667
106.296059 20.702499
106.322258 12.50179
106.343765 15.77083
106.383247 14.0125
106.480034 9.125
106.544777 9.517045
106.605972 32.8689
106.835838 15.90139
106.976692 28.92857
107.008507 6.011364
107.072762 1970.30896
107.116585 14.82008
107.1464 14.52083
107.170486 14.00272
107.217506 23.600401
107.271378 12.62348
107.278587 22.57407
107.313164 12.84028
107.418976 16.944441
107.476898 50.591221
109.783989 55.08036
109.822136 11.63636
116.049156 1026.110962
117.056923 1053.743042
117.103722 6.0375
117.130074 9.642858
117.276955 7.55
117.31842 16.50139
117.465408 16.501329
117.510658 8.0
117.58609 19.306141
117.642899 22.42215
117.680511 31.246929
117.733261 12.1
118.065437 1971.062988
118.109398 11.72917
118.139763 34.40625
118.273895 8.722222
118.364548 11.40833
118.383278 12.51389
118.51593 15.00833
118.758362 10.50417
118.810287 15.9025
119.069283 407.074402
119.263206 20.01515
119.350304 27.04464
119.381012 14.03811
119.404137 25.547119
119.555992 14.5329
120.079086 210.874695
120.199646 21.03125
130.301575 20.75625
130.73819 12.03571
132.069702 346.16629
132.18692 10.5625
132.250122 8.041667
132.272324 33.450401
132.321671 31.105261
132.33226 128.494095
132.349533 68.03949
132.378433 106.004204
132.386948 14.60417
132.412567 244.143402
132.438766 24.46023
132.461151 154.513901
132.475723 39.504459
132.492004 47.30798
132.5103 19.54891
132.535599 49.701389
132.560516 42.13834
132.582397 29.53441
132.594421 15.00152
132.613266 23.735291
132.630478 18.0625
132.644409 37.353111
132.714645 29.771839
132.760605 20.130039
132.772293 34.44294
132.810608 12.58266
132.872742 15.26563
132.903381 19.535721
132.935135 16.50169
132.983307 34.026791
133.011093 29.61986
133.051483 90.013237
133.076477 70750.882812
133.352493 65.477089
133.360428 47.06081
133.391785 108.376999
133.431168 84.725906
133.47168 159.659897
133.486877 46.965889
133.500809 54.830681
133.509872 177.513
133.527145 25.70417
133.542816 69.420883
133.572464 97.55545
133.589249 34.08313
133.600616 43.528591
133.61673 36.315109
133.628418 140.380295
133.671967 68.564262
133.710403 46.559212
133.726929 134.223694
133.750885 33.53064
133.775345 155.055206
133.796936 80.460716
133.810822 29.62398
133.90123 69.626762
133.931992 25.1609
133.944534 28.105
134.016312 16.5
134.059799 262.931793
134.083633 27244.800781
134.132248 126.9105
134.194702 63.589199
134.202118 20.32287
134.214188 13.34722
134.242355 46.027409
134.253845 30.07143
134.264938 25.71534
134.280045 55.61581
134.316635 40.539059
134.334656 25.50106
134.346634 66.74794
134.385056 58.59938
134.400223 59.013592
134.414734 35.368061
134.455688 51.712959
134.518768 47.170238
134.617157 45.223209
134.641907 55.820122
134.754227 17.02083
134.819 24.92404
135.161667 37.360291
135.23938 15.66806
135.277527 40.828911
135.522446 30.15517
135.69693 18.425711
135.920929 43.302601
136.175613 14.5329
136.480194 18.5625
136.561081 12.4225
136.610031 8.640625
137.168381 6.890625
137.649078 22.603319
140.18689 22.5875
144.081726 35.52029
148.330139 21.97266
149.119888 166.3806
150.056641 19.125
150.998642 24.06612
158.09491 162.723099
158.288864 14.77885
161.106659 82.508659
161.178116 21.80625
161.216232 13.98818
161.429123 26.004169
174.161087 17.513081
175.066711 13.54223
175.122665 861.849976
175.183258 32.800869
175.209671 14.59375
175.218811 22.840799
175.237091 13.54167
175.25473 31.42708
175.277969 137.915298
175.313599 192.752808
175.343185 39.412312
175.370148 37.660709
175.393387 13.5744
175.413208 57.577099
175.456436 20.9025
175.504272 22.26042
175.58725 105.155296
175.611526 30.03125
175.716339 22.607759
175.735519 14.55114
175.854736 24.06612
175.955841 48.95425
176.039291 19.00189
176.130615 22748.220703
176.185989 127.057899
176.222565 47.757519
176.237839 13.50781
176.248383 107.278603
176.296982 28.896669
176.32991 57.753471
176.359604 48.725811
176.375107 67.542053
176.395599 46.538151
176.439407 83.633537
176.482422 66.925003
176.505951 22.88942
176.523468 45.511219
176.555481 94.974617
176.613907 24.518391
176.636215 62.240181
176.657623 26.43392
176.672226 15.02632
176.711075 56.25433
176.755676 20.16667
176.765594 26.505211
176.785355 44.586208
176.918259 24.1777
176.965286 14.7
177.005219 18.932289
177.355759 29.513941
177.412857 12.57122
177.755646 17.04167
177.870438 17.72596
178.875488 17.132681
179.378357 14.60332
179.736206 12.75
180.08728 12.20439
181.153625 18.360291
184.042084 49.0
184.393997 26.903219
195.471786 29.421881
195.947037 22.26042
196.042847 184.284195
196.675156 9.898026
196.997604 34.26178
197.866196 41.69556
198.059067 829.125916
199.412628 12.55787
200.831635 57.04327
206.239731 14.20455
208.71994 8.043269
210.630341 29.52264
211.210419 11.71607
211.424332 29.55592
211.523499 19.64286
211.554428 19.002319
211.675598 8.222222
211.734787 183.260498
211.764023 231.089493
211.791992 136.103104
211.813202 270.210205
211.829758 108.882698
211.854187 171.746704
211.878143 225.513199
211.894531 60.574699
211.911224 23.76042
211.940155 91.697906
211.966324 86.413033
211.986679 53.82283
212.020142 86.035522
212.039108 37.723209
212.063431 136.263702
212.092041 112.492401
212.114716 100.492203
212.169357 158.479706
212.21817 32.55064
212.273682 11.24013
212.415756 18.69841
212.453918 65.209999
212.492599 73.775414
212.543808 47.5
212.628464 33.006779
212.692413 39.420609
212.714691 40.72123
212.841553 66.782051
212.917725 19.7663
212.930664 25.94676
213.020706 303.188812
213.069733 130452.0
213.555115 69.640404
213.572983 138.937393
213.597015 69.287949
213.61618 133.531693
213.670761 182.6297
213.701462 70.668587
213.747543 50.572979
213.834427 97.129097
213.900803 139.564102
213.922607 80.729027
213.981903 95.678673
214.046249 47.582771
214.136917 14.26389
214.188354 17.86364
214.216064 15.72454
214.260452 45.46711
214.307632 42.16964
214.482834 19.16806
214.493896 35.446758
214.509491 42.003288
214.535461 73.854019
214.643539 54.326221
214.759445 39.04018
214.784576 14.22321
215.102814 10.47115
215.295929 23.140631
215.351089 22.0
215.395966 6.508929
215.431168 101.695
215.591064 28.515631
215.604492 14.86012
215.708481 11.82143
215.749527 29.00128
215.851685 13.0025
216.265884 9.506945
216.293655 23.272791
216.32634 11.08333
216.465469 11.09879
216.777786 15.84299
217.057663 8.555921
217.112778 31.640631
219.052826 15.57407
220.895248 7.898026
226.71344 14.70833
239.050232 19.5
251.691925 20.02
253.474518 38.28072
253.51088 35.501228
253.550232 96.049141
253.571945 21.00152
253.597839 22.660931
253.62735 8.5
253.641296 28.74242
253.663086 39.78125
253.687393 60.909088
253.712219 52.64172
253.739273 12.16667
253.771805 87.254066
253.821503 52.48214
253.838181 27.121321
253.878693 38.00227
253.917114 28.54283
253.944855 62.211559
253.959747 10.14583
253.978348 48.557869
253.998688 10.69531
254.078812 60.216011
254.165543 56.807911
254.372452 37.170391
254.636703 17.630211
254.686539 30.62332
254.856964 29.36409
254.970428 28.926279
255.004776 13.95043
255.072723 148.944504
255.116898 49280.53125
255.36145 245.694595
255.412964 98.089203
255.439117 45.131248
255.454025 60.78862
255.490601 207.527298
255.52681 129.295807
255.576096 192.658493
255.604843 97.885979
255.649948 104.917801
255.665863 24.51079
255.697098 40.96505
255.716888 146.307098
255.765701 121.212097
255.795731 106.036102
255.817978 110.216698
255.841309 21.16939
255.885376 88.634117
255.934036 49.98518
255.949417 72.704514
256.058716 8.284091
256.299286 25.198059
256.389465 36.724861
256.473419 52.737728
256.68927 19.18
256.733887 30.0
256.852417 16.242649
256.990356 12.21607
257.029388 10.08654
257.180969 22.33456
257.369202 56.209099
257.604462 25.296301
257.914215 93.670143
258.101685 21.611111
259.618225 9.570313
259.915405 16.534719
273.130951 84.19886
274.132996 92.97596
1354.714233 50.000641
1389.938477 29.00893
1650.760986 13.0
